Dynamical matrix file
default                                                                    
  2   12  0  8.5037676  0.0000000  0.0000000  0.0000000  0.0000000  0.0000000
Basis vectors
      0.973217108    0.000000000    0.000000000
      0.486608554    0.845319362    0.000000000
      0.000000000    0.000000000    1.590192051
           1  'H   '    918.836054935965     
           2  'O   '    14582.1964298742     
    1    2      0.4866085540      0.2817095890      0.0949782740
    2    1      0.4866085540      0.2787508620      0.3180055250
    3    1      0.4866085540      0.0689293120      0.0280554270
    4    2      0.9732171080      0.5643454260      1.4868195660
    5    1      1.1518511060      0.4545173740      1.5628857730
    6    1      0.7945831110      0.4545173740      1.5628857730
    7    2      0.9732171080      0.5636097740      0.8900742990
    8    1      0.9732171080      0.5665685010      1.1131015510
    9    1      0.9732171080      0.7763900520      0.8231514520
   10    2      0.4866085540      0.2809739370      0.6917235400
   11    1      0.3079745570      0.3908019890      0.7677897470
   12    1      0.6652425520      0.3908019890      0.7677897470

     Dynamical  Matrix in cartesian axes

     q = (    0.000000000   0.000000000   0.000000000 ) 

    1    1
  0.11584946  0.00000000    0.00000000  0.00000000    0.00000000  0.00000000
  0.00000000  0.00000000    0.82182268  0.00000000    0.16886655  0.00000000
  0.00000000  0.00000000    0.16886655  0.00000000    0.95237180  0.00000000
    1    2
 -0.04124201  0.00000000    0.00000000  0.00000000    0.00000000  0.00000000
  0.00000000  0.00000000   -0.10095398  0.00000000   -0.01416349  0.00000000
  0.00000000  0.00000000    0.05891446  0.00000000   -0.69413923  0.00000000
    1    3
 -0.04325470  0.00000000    0.00000000  0.00000000    0.00000000  0.00000000
  0.00000000  0.00000000   -0.62884967  0.00000000   -0.11827583  0.00000000
  0.00000000  0.00000000   -0.19762180  0.00000000   -0.14963933  0.00000000
    1    4
 -0.08008370  0.00000000    0.00000000  0.00000000    0.00000000  0.00000000
  0.00000000  0.00000000   -0.08360949  0.00000000    0.00422445  0.00000000
  0.00000000  0.00000000    0.00103466  0.00000000    0.00373450  0.00000000
    1    5
  0.01925038  0.00000000   -0.03312385  0.00000000    0.01956453  0.00000000
 -0.03167955  0.00000000   -0.00978269  0.00000000   -0.01830764  0.00000000
  0.00867241  0.00000000   -0.01293408  0.00000000   -0.02439769  0.00000000
    1    6
  0.01925038  0.00000000    0.03312385  0.00000000   -0.01956453  0.00000000
  0.03167955  0.00000000   -0.00978269  0.00000000   -0.01830764  0.00000000
 -0.00867241  0.00000000   -0.01293408  0.00000000   -0.02439769  0.00000000
    1    7
  0.00130736  0.00000000    0.00000000  0.00000000    0.00000000  0.00000000
  0.00000000  0.00000000    0.00178111  0.00000000   -0.00131520  0.00000000
  0.00000000  0.00000000    0.00131520  0.00000000   -0.01847965  0.00000000
    1    8
 -0.00164344  0.00000000    0.00000000  0.00000000    0.00000000  0.00000000
  0.00000000  0.00000000   -0.00205108  0.00000000    0.00204797  0.00000000
  0.00000000  0.00000000   -0.00116139  0.00000000    0.02213726  0.00000000
    1    9
 -0.00024026  0.00000000    0.00000000  0.00000000    0.00000000  0.00000000
  0.00000000  0.00000000   -0.00154776  0.00000000   -0.00040028  0.00000000
  0.00000000  0.00000000   -0.01119291  0.00000000    0.00468808  0.00000000
    1   10
  0.01311284  0.00000000    0.00000000  0.00000000    0.00000000  0.00000000
  0.00000000  0.00000000    0.01210823  0.00000000   -0.00907041  0.00000000
  0.00000000  0.00000000   -0.00740392  0.00000000   -0.07314055  0.00000000
    1   11
 -0.00104804  0.00000000    0.00045496  0.00000000   -0.00261184  0.00000000
 -0.00025909  0.00000000    0.00043365  0.00000000    0.00236601  0.00000000
 -0.01275350  0.00000000    0.00656946  0.00000000    0.00053849  0.00000000
    1   12
 -0.00104804  0.00000000   -0.00045496  0.00000000    0.00261184  0.00000000
  0.00025909  0.00000000    0.00043365  0.00000000    0.00236601  0.00000000
  0.01275350  0.00000000    0.00656946  0.00000000    0.00053849  0.00000000
    2    1
 -0.04124201  0.00000000    0.00000000  0.00000000    0.00000000  0.00000000
  0.00000000  0.00000000   -0.10095398  0.00000000    0.05891446  0.00000000
  0.00000000  0.00000000   -0.01416349  0.00000000   -0.69413923  0.00000000
    2    2
  0.06838210  0.00000000    0.00000000  0.00000000    0.00000000  0.00000000
  0.00000000  0.00000000    0.11880890  0.00000000    0.00471634  0.00000000
  0.00000000  0.00000000    0.00471634  0.00000000    0.69459118  0.00000000
    2    3
 -0.00303050  0.00000000    0.00000000  0.00000000    0.00000000  0.00000000
  0.00000000  0.00000000    0.00704542  0.00000000   -0.07432155  0.00000000
  0.00000000  0.00000000   -0.00889208  0.00000000   -0.02118800  0.00000000
    2    4
 -0.00859460  0.00000000    0.00000000  0.00000000    0.00000000  0.00000000
  0.00000000  0.00000000   -0.00784790  0.00000000    0.00095621  0.00000000
  0.00000000  0.00000000   -0.00218866  0.00000000    0.02355706  0.00000000
    2    5
  0.00449813  0.00000000   -0.00402947  0.00000000   -0.00825895  0.00000000
 -0.00587673  0.00000000    0.00151429  0.00000000    0.00440330  0.00000000
 -0.01487396  0.00000000    0.00942971  0.00000000   -0.00713054  0.00000000
    2    6
  0.00449813  0.00000000    0.00402947  0.00000000    0.00825895  0.00000000
  0.00587673  0.00000000    0.00151429  0.00000000    0.00440330  0.00000000
  0.01487396  0.00000000    0.00942971  0.00000000   -0.00713054  0.00000000
    2    7
 -0.00164344  0.00000000    0.00000000  0.00000000    0.00000000  0.00000000
  0.00000000  0.00000000   -0.00205108  0.00000000    0.00116139  0.00000000
  0.00000000  0.00000000   -0.00204797  0.00000000    0.02213726  0.00000000
    2    8
  0.00053534  0.00000000    0.00000000  0.00000000    0.00000000  0.00000000
  0.00000000  0.00000000    0.00061854  0.00000000   -0.00124916  0.00000000
  0.00000000  0.00000000    0.00124916  0.00000000   -0.02752885  0.00000000
    2    9
 -0.00013703  0.00000000    0.00000000  0.00000000    0.00000000  0.00000000
  0.00000000  0.00000000    0.00214572  0.00000000    0.00215791  0.00000000
  0.00000000  0.00000000    0.01655552  0.00000000   -0.00464964  0.00000000
    2   10
 -0.02846483  0.00000000    0.00000000  0.00000000    0.00000000  0.00000000
  0.00000000  0.00000000   -0.01939748  0.00000000    0.01170030  0.00000000
  0.00000000  0.00000000    0.00298573  0.00000000    0.02668255  0.00000000
    2   11
  0.00260018  0.00000000   -0.00158705  0.00000000    0.01000915  0.00000000
 -0.00030567  0.00000000   -0.00069963  0.00000000   -0.00642102  0.00000000
  0.01778799  0.00000000   -0.00853623  0.00000000   -0.00260117  0.00000000
    2   12
  0.00260018  0.00000000    0.00158705  0.00000000   -0.01000915  0.00000000
  0.00030567  0.00000000   -0.00069963  0.00000000   -0.00642102  0.00000000
 -0.01778799  0.00000000   -0.00853623  0.00000000   -0.00260117  0.00000000
    3    1
 -0.04325470  0.00000000    0.00000000  0.00000000    0.00000000  0.00000000
  0.00000000  0.00000000   -0.62884967  0.00000000   -0.19762180  0.00000000
  0.00000000  0.00000000   -0.11827583  0.00000000   -0.14963933  0.00000000
    3    2
 -0.00303050  0.00000000    0.00000000  0.00000000    0.00000000  0.00000000
  0.00000000  0.00000000    0.00704542  0.00000000   -0.00889208  0.00000000
  0.00000000  0.00000000   -0.07432155  0.00000000   -0.02118800  0.00000000
    3    3
  0.06917921  0.00000000    0.00000000  0.00000000    0.00000000  0.00000000
  0.00000000  0.00000000    0.61325234  0.00000000    0.16954008  0.00000000
  0.00000000  0.00000000    0.16954008  0.00000000    0.17821400  0.00000000
    3    4
 -0.03854513  0.00000000    0.00000000  0.00000000    0.00000000  0.00000000
  0.00000000  0.00000000    0.04589381  0.00000000    0.00752648  0.00000000
  0.00000000  0.00000000    0.01499647  0.00000000   -0.02510867  0.00000000
    3    5
  0.00753674  0.00000000    0.01530146  0.00000000    0.01171428  0.00000000
  0.03191275  0.00000000   -0.01897960  0.00000000    0.01331570  0.00000000
  0.01870442  0.00000000    0.00338128  0.00000000    0.01172827  0.00000000
    3    6
  0.00753674  0.00000000   -0.01530146  0.00000000   -0.01171428  0.00000000
 -0.03191275  0.00000000   -0.01897960  0.00000000    0.01331570  0.00000000
 -0.01870442  0.00000000    0.00338128  0.00000000    0.01172827  0.00000000
    3    7
 -0.00024026  0.00000000    0.00000000  0.00000000    0.00000000  0.00000000
  0.00000000  0.00000000   -0.00154776  0.00000000    0.01119291  0.00000000
  0.00000000  0.00000000    0.00040028  0.00000000    0.00468808  0.00000000
    3    8
 -0.00013703  0.00000000    0.00000000  0.00000000    0.00000000  0.00000000
  0.00000000  0.00000000    0.00214572  0.00000000   -0.01655552  0.00000000
  0.00000000  0.00000000   -0.00215791  0.00000000   -0.00464964  0.00000000
    3    9
  0.00051766  0.00000000    0.00000000  0.00000000    0.00000000  0.00000000
  0.00000000  0.00000000    0.00395634  0.00000000   -0.00121369  0.00000000
  0.00000000  0.00000000    0.00121369  0.00000000   -0.00338285  0.00000000
    3   10
  0.00011131  0.00000000    0.00000000  0.00000000    0.00000000  0.00000000
  0.00000000  0.00000000   -0.00051211  0.00000000    0.01287658  0.00000000
  0.00000000  0.00000000    0.00231581  0.00000000    0.00110165  0.00000000
    3   11
  0.00016512  0.00000000    0.00030688  0.00000000   -0.00037550  0.00000000
  0.00326324  0.00000000   -0.00171497  0.00000000   -0.00174310  0.00000000
  0.00144169  0.00000000   -0.00023793  0.00000000   -0.00174915  0.00000000
    3   12
  0.00016512  0.00000000   -0.00030688  0.00000000    0.00037550  0.00000000
 -0.00326324  0.00000000   -0.00171497  0.00000000   -0.00174310  0.00000000
 -0.00144169  0.00000000   -0.00023793  0.00000000   -0.00174915  0.00000000
    4    1
 -0.08008370  0.00000000    0.00000000  0.00000000    0.00000000  0.00000000
  0.00000000  0.00000000   -0.08360949  0.00000000    0.00103466  0.00000000
  0.00000000  0.00000000    0.00422445  0.00000000    0.00373450  0.00000000
    4    2
 -0.00859460  0.00000000    0.00000000  0.00000000    0.00000000  0.00000000
  0.00000000  0.00000000   -0.00784790  0.00000000   -0.00218866  0.00000000
  0.00000000  0.00000000    0.00095621  0.00000000    0.02355706  0.00000000
    4    3
 -0.03854513  0.00000000    0.00000000  0.00000000    0.00000000  0.00000000
  0.00000000  0.00000000    0.04589381  0.00000000    0.01499647  0.00000000
  0.00000000  0.00000000    0.00752648  0.00000000   -0.02510867  0.00000000
    4    4
  1.04989861  0.00000000    0.00000000  0.00000000    0.00000000  0.00000000
  0.00000000  0.00000000    0.51330794  0.00000000   -0.27558434  0.00000000
  0.00000000  0.00000000   -0.27558434  0.00000000    0.32457497  0.00000000
    4    5
 -0.45402227  0.00000000    0.25561456  0.00000000   -0.17805745  0.00000000
  0.19887622  0.00000000   -0.23012753  0.00000000    0.12943346  0.00000000
 -0.14741975  0.00000000    0.13438072  0.00000000   -0.13746891  0.00000000
    4    6
 -0.45402227  0.00000000   -0.25561456  0.00000000    0.17805745  0.00000000
 -0.19887622  0.00000000   -0.23012753  0.00000000    0.12943346  0.00000000
  0.14741975  0.00000000    0.13438072  0.00000000   -0.13746891  0.00000000
    4    7
  0.01311284  0.00000000    0.00000000  0.00000000    0.00000000  0.00000000
  0.00000000  0.00000000    0.01210823  0.00000000    0.00740392  0.00000000
  0.00000000  0.00000000    0.00907041  0.00000000   -0.07314055  0.00000000
    4    8
 -0.02846483  0.00000000    0.00000000  0.00000000    0.00000000  0.00000000
  0.00000000  0.00000000   -0.01939748  0.00000000   -0.00298573  0.00000000
  0.00000000  0.00000000   -0.01170030  0.00000000    0.02668255  0.00000000
    4    9
  0.00011131  0.00000000    0.00000000  0.00000000    0.00000000  0.00000000
  0.00000000  0.00000000   -0.00051211  0.00000000   -0.00231581  0.00000000
  0.00000000  0.00000000   -0.01287658  0.00000000    0.00110165  0.00000000
    4   10
  0.00173537  0.00000000    0.00000000  0.00000000    0.00000000  0.00000000
  0.00000000  0.00000000    0.00140161  0.00000000   -0.00013023  0.00000000
  0.00000000  0.00000000    0.00013023  0.00000000   -0.01764532  0.00000000
    4   11
 -0.00060478  0.00000000    0.00030420  0.00000000   -0.00062368  0.00000000
  0.00040537  0.00000000   -0.00052025  0.00000000    0.00046462  0.00000000
 -0.00882148  0.00000000    0.00475129  0.00000000    0.00512915  0.00000000
    4   12
 -0.00060478  0.00000000   -0.00030420  0.00000000    0.00062368  0.00000000
 -0.00040537  0.00000000   -0.00052025  0.00000000    0.00046462  0.00000000
  0.00882148  0.00000000    0.00475129  0.00000000    0.00512915  0.00000000
    5    1
  0.01925038  0.00000000   -0.03167955  0.00000000    0.00867241  0.00000000
 -0.03312385  0.00000000   -0.00978269  0.00000000   -0.01293408  0.00000000
  0.01956453  0.00000000   -0.01830764  0.00000000   -0.02439769  0.00000000
    5    2
  0.00449813  0.00000000   -0.00587673  0.00000000   -0.01487396  0.00000000
 -0.00402947  0.00000000    0.00151429  0.00000000    0.00942971  0.00000000
 -0.00825895  0.00000000    0.00440330  0.00000000   -0.00713054  0.00000000
    5    3
  0.00753674  0.00000000    0.03191275  0.00000000    0.01870442  0.00000000
  0.01530146  0.00000000   -0.01897960  0.00000000    0.00338128  0.00000000
  0.01171428  0.00000000    0.01331570  0.00000000    0.01172827  0.00000000
    5    4
 -0.45402227  0.00000000    0.19887622  0.00000000   -0.14741975  0.00000000
  0.25561456  0.00000000   -0.23012753  0.00000000    0.13438072  0.00000000
 -0.17805745  0.00000000    0.12943346  0.00000000   -0.13746891  0.00000000
    5    5
  0.48758632  0.00000000   -0.21339648  0.00000000    0.14826407  0.00000000
 -0.21339648  0.00000000    0.22722893  0.00000000   -0.10952791  0.00000000
  0.14826407  0.00000000   -0.10952791  0.00000000    0.14583933  0.00000000
    5    6
 -0.06619473  0.00000000    0.01984028  0.00000000   -0.01338595  0.00000000
 -0.01984028  0.00000000    0.03056873  0.00000000   -0.02341442  0.00000000
  0.01338595  0.00000000   -0.02341442  0.00000000    0.01544505  0.00000000
    5    7
 -0.00104804  0.00000000   -0.00025909  0.00000000    0.01275350  0.00000000
  0.00045496  0.00000000    0.00043365  0.00000000   -0.00656946  0.00000000
  0.00261184  0.00000000   -0.00236601  0.00000000    0.00053849  0.00000000
    5    8
  0.00260018  0.00000000   -0.00030567  0.00000000   -0.01778799  0.00000000
 -0.00158705  0.00000000   -0.00069963  0.00000000    0.00853623  0.00000000
 -0.01000915  0.00000000    0.00642102  0.00000000   -0.00260117  0.00000000
    5    9
  0.00016512  0.00000000    0.00326324  0.00000000   -0.00144169  0.00000000
  0.00030688  0.00000000   -0.00171497  0.00000000    0.00023793  0.00000000
  0.00037550  0.00000000    0.00174310  0.00000000   -0.00174915  0.00000000
    5   10
 -0.00060478  0.00000000    0.00040537  0.00000000    0.00882148  0.00000000
  0.00030420  0.00000000   -0.00052025  0.00000000   -0.00475129  0.00000000
  0.00062368  0.00000000   -0.00046462  0.00000000    0.00512915  0.00000000
    5   11
  0.00310282  0.00000000   -0.00138901  0.00000000   -0.00104543  0.00000000
 -0.00138901  0.00000000    0.00116852  0.00000000    0.00036956  0.00000000
  0.00104543  0.00000000   -0.00036956  0.00000000   -0.00337297  0.00000000
    5   12
 -0.00287051  0.00000000   -0.00138915  0.00000000   -0.00126441  0.00000000
  0.00138915  0.00000000    0.00091142  0.00000000    0.00086395  0.00000000
 -0.00126441  0.00000000   -0.00086395  0.00000000   -0.00197263  0.00000000
    6    1
  0.01925038  0.00000000    0.03167955  0.00000000   -0.00867241  0.00000000
  0.03312385  0.00000000   -0.00978269  0.00000000   -0.01293408  0.00000000
 -0.01956453  0.00000000   -0.01830764  0.00000000   -0.02439769  0.00000000
    6    2
  0.00449813  0.00000000    0.00587673  0.00000000    0.01487396  0.00000000
  0.00402947  0.00000000    0.00151429  0.00000000    0.00942971  0.00000000
  0.00825895  0.00000000    0.00440330  0.00000000   -0.00713054  0.00000000
    6    3
  0.00753674  0.00000000   -0.03191275  0.00000000   -0.01870442  0.00000000
 -0.01530146  0.00000000   -0.01897960  0.00000000    0.00338128  0.00000000
 -0.01171428  0.00000000    0.01331570  0.00000000    0.01172827  0.00000000
    6    4
 -0.45402227  0.00000000   -0.19887622  0.00000000    0.14741975  0.00000000
 -0.25561456  0.00000000   -0.23012753  0.00000000    0.13438072  0.00000000
  0.17805745  0.00000000    0.12943346  0.00000000   -0.13746891  0.00000000
    6    5
 -0.06619473  0.00000000   -0.01984028  0.00000000    0.01338595  0.00000000
  0.01984028  0.00000000    0.03056873  0.00000000   -0.02341442  0.00000000
 -0.01338595  0.00000000   -0.02341442  0.00000000    0.01544505  0.00000000
    6    6
  0.48758632  0.00000000    0.21339648  0.00000000   -0.14826407  0.00000000
  0.21339648  0.00000000    0.22722893  0.00000000   -0.10952791  0.00000000
 -0.14826407  0.00000000   -0.10952791  0.00000000    0.14583933  0.00000000
    6    7
 -0.00104804  0.00000000    0.00025909  0.00000000   -0.01275350  0.00000000
 -0.00045496  0.00000000    0.00043365  0.00000000   -0.00656946  0.00000000
 -0.00261184  0.00000000   -0.00236601  0.00000000    0.00053849  0.00000000
    6    8
  0.00260018  0.00000000    0.00030567  0.00000000    0.01778799  0.00000000
  0.00158705  0.00000000   -0.00069963  0.00000000    0.00853623  0.00000000
  0.01000915  0.00000000    0.00642102  0.00000000   -0.00260117  0.00000000
    6    9
  0.00016512  0.00000000   -0.00326324  0.00000000    0.00144169  0.00000000
 -0.00030688  0.00000000   -0.00171497  0.00000000    0.00023793  0.00000000
 -0.00037550  0.00000000    0.00174310  0.00000000   -0.00174915  0.00000000
    6   10
 -0.00060478  0.00000000   -0.00040537  0.00000000   -0.00882148  0.00000000
 -0.00030420  0.00000000   -0.00052025  0.00000000   -0.00475129  0.00000000
 -0.00062368  0.00000000   -0.00046462  0.00000000    0.00512915  0.00000000
    6   11
 -0.00287051  0.00000000    0.00138915  0.00000000    0.00126441  0.00000000
 -0.00138915  0.00000000    0.00091142  0.00000000    0.00086395  0.00000000
  0.00126441  0.00000000   -0.00086395  0.00000000   -0.00197263  0.00000000
    6   12
  0.00310282  0.00000000    0.00138901  0.00000000    0.00104543  0.00000000
  0.00138901  0.00000000    0.00116852  0.00000000    0.00036956  0.00000000
 -0.00104543  0.00000000   -0.00036956  0.00000000   -0.00337297  0.00000000
    7    1
  0.00130736  0.00000000    0.00000000  0.00000000    0.00000000  0.00000000
  0.00000000  0.00000000    0.00178111  0.00000000    0.00131520  0.00000000
  0.00000000  0.00000000   -0.00131520  0.00000000   -0.01847965  0.00000000
    7    2
 -0.00164344  0.00000000    0.00000000  0.00000000    0.00000000  0.00000000
  0.00000000  0.00000000   -0.00205108  0.00000000   -0.00204797  0.00000000
  0.00000000  0.00000000    0.00116139  0.00000000    0.02213726  0.00000000
    7    3
 -0.00024026  0.00000000    0.00000000  0.00000000    0.00000000  0.00000000
  0.00000000  0.00000000   -0.00154776  0.00000000    0.00040028  0.00000000
  0.00000000  0.00000000    0.01119291  0.00000000    0.00468808  0.00000000
    7    4
  0.01311284  0.00000000    0.00000000  0.00000000    0.00000000  0.00000000
  0.00000000  0.00000000    0.01210823  0.00000000    0.00907041  0.00000000
  0.00000000  0.00000000    0.00740392  0.00000000   -0.07314055  0.00000000
    7    5
 -0.00104804  0.00000000    0.00045496  0.00000000    0.00261184  0.00000000
 -0.00025909  0.00000000    0.00043365  0.00000000   -0.00236601  0.00000000
  0.01275350  0.00000000   -0.00656946  0.00000000    0.00053849  0.00000000
    7    6
 -0.00104804  0.00000000   -0.00045496  0.00000000   -0.00261184  0.00000000
  0.00025909  0.00000000    0.00043365  0.00000000   -0.00236601  0.00000000
 -0.01275350  0.00000000   -0.00656946  0.00000000    0.00053849  0.00000000
    7    7
  0.11584946  0.00000000    0.00000000  0.00000000    0.00000000  0.00000000
  0.00000000  0.00000000    0.82182268  0.00000000   -0.16886655  0.00000000
  0.00000000  0.00000000   -0.16886655  0.00000000    0.95237180  0.00000000
    7    8
 -0.04124201  0.00000000    0.00000000  0.00000000    0.00000000  0.00000000
  0.00000000  0.00000000   -0.10095398  0.00000000    0.01416349  0.00000000
  0.00000000  0.00000000   -0.05891446  0.00000000   -0.69413923  0.00000000
    7    9
 -0.04325470  0.00000000    0.00000000  0.00000000    0.00000000  0.00000000
  0.00000000  0.00000000   -0.62884967  0.00000000    0.11827583  0.00000000
  0.00000000  0.00000000    0.19762180  0.00000000   -0.14963933  0.00000000
    7   10
 -0.08008370  0.00000000    0.00000000  0.00000000    0.00000000  0.00000000
  0.00000000  0.00000000   -0.08360949  0.00000000   -0.00422445  0.00000000
  0.00000000  0.00000000   -0.00103466  0.00000000    0.00373450  0.00000000
    7   11
  0.01925038  0.00000000   -0.03312385  0.00000000   -0.01956453  0.00000000
 -0.03167955  0.00000000   -0.00978269  0.00000000    0.01830764  0.00000000
 -0.00867241  0.00000000    0.01293408  0.00000000   -0.02439769  0.00000000
    7   12
  0.01925038  0.00000000    0.03312385  0.00000000    0.01956453  0.00000000
  0.03167955  0.00000000   -0.00978269  0.00000000    0.01830764  0.00000000
  0.00867241  0.00000000    0.01293408  0.00000000   -0.02439769  0.00000000
    8    1
 -0.00164344  0.00000000    0.00000000  0.00000000    0.00000000  0.00000000
  0.00000000  0.00000000   -0.00205108  0.00000000   -0.00116139  0.00000000
  0.00000000  0.00000000    0.00204797  0.00000000    0.02213726  0.00000000
    8    2
  0.00053534  0.00000000    0.00000000  0.00000000    0.00000000  0.00000000
  0.00000000  0.00000000    0.00061854  0.00000000    0.00124916  0.00000000
  0.00000000  0.00000000   -0.00124916  0.00000000   -0.02752885  0.00000000
    8    3
 -0.00013703  0.00000000    0.00000000  0.00000000    0.00000000  0.00000000
  0.00000000  0.00000000    0.00214572  0.00000000   -0.00215791  0.00000000
  0.00000000  0.00000000   -0.01655552  0.00000000   -0.00464964  0.00000000
    8    4
 -0.02846483  0.00000000    0.00000000  0.00000000    0.00000000  0.00000000
  0.00000000  0.00000000   -0.01939748  0.00000000   -0.01170030  0.00000000
  0.00000000  0.00000000   -0.00298573  0.00000000    0.02668255  0.00000000
    8    5
  0.00260018  0.00000000   -0.00158705  0.00000000   -0.01000915  0.00000000
 -0.00030567  0.00000000   -0.00069963  0.00000000    0.00642102  0.00000000
 -0.01778799  0.00000000    0.00853623  0.00000000   -0.00260117  0.00000000
    8    6
  0.00260018  0.00000000    0.00158705  0.00000000    0.01000915  0.00000000
  0.00030567  0.00000000   -0.00069963  0.00000000    0.00642102  0.00000000
  0.01778799  0.00000000    0.00853623  0.00000000   -0.00260117  0.00000000
    8    7
 -0.04124201  0.00000000    0.00000000  0.00000000    0.00000000  0.00000000
  0.00000000  0.00000000   -0.10095398  0.00000000   -0.05891446  0.00000000
  0.00000000  0.00000000    0.01416349  0.00000000   -0.69413923  0.00000000
    8    8
  0.06838210  0.00000000    0.00000000  0.00000000    0.00000000  0.00000000
  0.00000000  0.00000000    0.11880890  0.00000000   -0.00471634  0.00000000
  0.00000000  0.00000000   -0.00471634  0.00000000    0.69459118  0.00000000
    8    9
 -0.00303050  0.00000000    0.00000000  0.00000000    0.00000000  0.00000000
  0.00000000  0.00000000    0.00704542  0.00000000    0.07432155  0.00000000
  0.00000000  0.00000000    0.00889208  0.00000000   -0.02118800  0.00000000
    8   10
 -0.00859460  0.00000000    0.00000000  0.00000000    0.00000000  0.00000000
  0.00000000  0.00000000   -0.00784790  0.00000000   -0.00095621  0.00000000
  0.00000000  0.00000000    0.00218866  0.00000000    0.02355706  0.00000000
    8   11
  0.00449813  0.00000000   -0.00402947  0.00000000    0.00825895  0.00000000
 -0.00587673  0.00000000    0.00151429  0.00000000   -0.00440330  0.00000000
  0.01487396  0.00000000   -0.00942971  0.00000000   -0.00713054  0.00000000
    8   12
  0.00449813  0.00000000    0.00402947  0.00000000   -0.00825895  0.00000000
  0.00587673  0.00000000    0.00151429  0.00000000   -0.00440330  0.00000000
 -0.01487396  0.00000000   -0.00942971  0.00000000   -0.00713054  0.00000000
    9    1
 -0.00024026  0.00000000    0.00000000  0.00000000    0.00000000  0.00000000
  0.00000000  0.00000000   -0.00154776  0.00000000   -0.01119291  0.00000000
  0.00000000  0.00000000   -0.00040028  0.00000000    0.00468808  0.00000000
    9    2
 -0.00013703  0.00000000    0.00000000  0.00000000    0.00000000  0.00000000
  0.00000000  0.00000000    0.00214572  0.00000000    0.01655552  0.00000000
  0.00000000  0.00000000    0.00215791  0.00000000   -0.00464964  0.00000000
    9    3
  0.00051766  0.00000000    0.00000000  0.00000000    0.00000000  0.00000000
  0.00000000  0.00000000    0.00395634  0.00000000    0.00121369  0.00000000
  0.00000000  0.00000000   -0.00121369  0.00000000   -0.00338285  0.00000000
    9    4
  0.00011131  0.00000000    0.00000000  0.00000000    0.00000000  0.00000000
  0.00000000  0.00000000   -0.00051211  0.00000000   -0.01287658  0.00000000
  0.00000000  0.00000000   -0.00231581  0.00000000    0.00110165  0.00000000
    9    5
  0.00016512  0.00000000    0.00030688  0.00000000    0.00037550  0.00000000
  0.00326324  0.00000000   -0.00171497  0.00000000    0.00174310  0.00000000
 -0.00144169  0.00000000    0.00023793  0.00000000   -0.00174915  0.00000000
    9    6
  0.00016512  0.00000000   -0.00030688  0.00000000   -0.00037550  0.00000000
 -0.00326324  0.00000000   -0.00171497  0.00000000    0.00174310  0.00000000
  0.00144169  0.00000000    0.00023793  0.00000000   -0.00174915  0.00000000
    9    7
 -0.04325470  0.00000000    0.00000000  0.00000000    0.00000000  0.00000000
  0.00000000  0.00000000   -0.62884967  0.00000000    0.19762180  0.00000000
  0.00000000  0.00000000    0.11827583  0.00000000   -0.14963933  0.00000000
    9    8
 -0.00303050  0.00000000    0.00000000  0.00000000    0.00000000  0.00000000
  0.00000000  0.00000000    0.00704542  0.00000000    0.00889208  0.00000000
  0.00000000  0.00000000    0.07432155  0.00000000   -0.02118800  0.00000000
    9    9
  0.06917921  0.00000000    0.00000000  0.00000000    0.00000000  0.00000000
  0.00000000  0.00000000    0.61325234  0.00000000   -0.16954008  0.00000000
  0.00000000  0.00000000   -0.16954008  0.00000000    0.17821400  0.00000000
    9   10
 -0.03854513  0.00000000    0.00000000  0.00000000    0.00000000  0.00000000
  0.00000000  0.00000000    0.04589381  0.00000000   -0.00752648  0.00000000
  0.00000000  0.00000000   -0.01499647  0.00000000   -0.02510867  0.00000000
    9   11
  0.00753674  0.00000000    0.01530146  0.00000000   -0.01171428  0.00000000
  0.03191275  0.00000000   -0.01897960  0.00000000   -0.01331570  0.00000000
 -0.01870442  0.00000000   -0.00338128  0.00000000    0.01172827  0.00000000
    9   12
  0.00753674  0.00000000   -0.01530146  0.00000000    0.01171428  0.00000000
 -0.03191275  0.00000000   -0.01897960  0.00000000   -0.01331570  0.00000000
  0.01870442  0.00000000   -0.00338128  0.00000000    0.01172827  0.00000000
   10    1
  0.01311284  0.00000000    0.00000000  0.00000000    0.00000000  0.00000000
  0.00000000  0.00000000    0.01210823  0.00000000   -0.00740392  0.00000000
  0.00000000  0.00000000   -0.00907041  0.00000000   -0.07314055  0.00000000
   10    2
 -0.02846483  0.00000000    0.00000000  0.00000000    0.00000000  0.00000000
  0.00000000  0.00000000   -0.01939748  0.00000000    0.00298573  0.00000000
  0.00000000  0.00000000    0.01170030  0.00000000    0.02668255  0.00000000
   10    3
  0.00011131  0.00000000    0.00000000  0.00000000    0.00000000  0.00000000
  0.00000000  0.00000000   -0.00051211  0.00000000    0.00231581  0.00000000
  0.00000000  0.00000000    0.01287658  0.00000000    0.00110165  0.00000000
   10    4
  0.00173537  0.00000000    0.00000000  0.00000000    0.00000000  0.00000000
  0.00000000  0.00000000    0.00140161  0.00000000    0.00013023  0.00000000
  0.00000000  0.00000000   -0.00013023  0.00000000   -0.01764532  0.00000000
   10    5
 -0.00060478  0.00000000    0.00030420  0.00000000    0.00062368  0.00000000
  0.00040537  0.00000000   -0.00052025  0.00000000   -0.00046462  0.00000000
  0.00882148  0.00000000   -0.00475129  0.00000000    0.00512915  0.00000000
   10    6
 -0.00060478  0.00000000   -0.00030420  0.00000000   -0.00062368  0.00000000
 -0.00040537  0.00000000   -0.00052025  0.00000000   -0.00046462  0.00000000
 -0.00882148  0.00000000   -0.00475129  0.00000000    0.00512915  0.00000000
   10    7
 -0.08008370  0.00000000    0.00000000  0.00000000    0.00000000  0.00000000
  0.00000000  0.00000000   -0.08360949  0.00000000   -0.00103466  0.00000000
  0.00000000  0.00000000   -0.00422445  0.00000000    0.00373450  0.00000000
   10    8
 -0.00859460  0.00000000    0.00000000  0.00000000    0.00000000  0.00000000
  0.00000000  0.00000000   -0.00784790  0.00000000    0.00218866  0.00000000
  0.00000000  0.00000000   -0.00095621  0.00000000    0.02355706  0.00000000
   10    9
 -0.03854513  0.00000000    0.00000000  0.00000000    0.00000000  0.00000000
  0.00000000  0.00000000    0.04589381  0.00000000   -0.01499647  0.00000000
  0.00000000  0.00000000   -0.00752648  0.00000000   -0.02510867  0.00000000
   10   10
  1.04989861  0.00000000    0.00000000  0.00000000    0.00000000  0.00000000
  0.00000000  0.00000000    0.51330794  0.00000000    0.27558434  0.00000000
  0.00000000  0.00000000    0.27558434  0.00000000    0.32457497  0.00000000
   10   11
 -0.45402227  0.00000000    0.25561456  0.00000000    0.17805745  0.00000000
  0.19887622  0.00000000   -0.23012753  0.00000000   -0.12943346  0.00000000
  0.14741975  0.00000000   -0.13438072  0.00000000   -0.13746891  0.00000000
   10   12
 -0.45402227  0.00000000   -0.25561456  0.00000000   -0.17805745  0.00000000
 -0.19887622  0.00000000   -0.23012753  0.00000000   -0.12943346  0.00000000
 -0.14741975  0.00000000   -0.13438072  0.00000000   -0.13746891  0.00000000
   11    1
 -0.00104804  0.00000000   -0.00025909  0.00000000   -0.01275350  0.00000000
  0.00045496  0.00000000    0.00043365  0.00000000    0.00656946  0.00000000
 -0.00261184  0.00000000    0.00236601  0.00000000    0.00053849  0.00000000
   11    2
  0.00260018  0.00000000   -0.00030567  0.00000000    0.01778799  0.00000000
 -0.00158705  0.00000000   -0.00069963  0.00000000   -0.00853623  0.00000000
  0.01000915  0.00000000   -0.00642102  0.00000000   -0.00260117  0.00000000
   11    3
  0.00016512  0.00000000    0.00326324  0.00000000    0.00144169  0.00000000
  0.00030688  0.00000000   -0.00171497  0.00000000   -0.00023793  0.00000000
 -0.00037550  0.00000000   -0.00174310  0.00000000   -0.00174915  0.00000000
   11    4
 -0.00060478  0.00000000    0.00040537  0.00000000   -0.00882148  0.00000000
  0.00030420  0.00000000   -0.00052025  0.00000000    0.00475129  0.00000000
 -0.00062368  0.00000000    0.00046462  0.00000000    0.00512915  0.00000000
   11    5
  0.00310282  0.00000000   -0.00138901  0.00000000    0.00104543  0.00000000
 -0.00138901  0.00000000    0.00116852  0.00000000   -0.00036956  0.00000000
 -0.00104543  0.00000000    0.00036956  0.00000000   -0.00337297  0.00000000
   11    6
 -0.00287051  0.00000000   -0.00138915  0.00000000    0.00126441  0.00000000
  0.00138915  0.00000000    0.00091142  0.00000000   -0.00086395  0.00000000
  0.00126441  0.00000000    0.00086395  0.00000000   -0.00197263  0.00000000
   11    7
  0.01925038  0.00000000   -0.03167955  0.00000000   -0.00867241  0.00000000
 -0.03312385  0.00000000   -0.00978269  0.00000000    0.01293408  0.00000000
 -0.01956453  0.00000000    0.01830764  0.00000000   -0.02439769  0.00000000
   11    8
  0.00449813  0.00000000   -0.00587673  0.00000000    0.01487396  0.00000000
 -0.00402947  0.00000000    0.00151429  0.00000000   -0.00942971  0.00000000
  0.00825895  0.00000000   -0.00440330  0.00000000   -0.00713054  0.00000000
   11    9
  0.00753674  0.00000000    0.03191275  0.00000000   -0.01870442  0.00000000
  0.01530146  0.00000000   -0.01897960  0.00000000   -0.00338128  0.00000000
 -0.01171428  0.00000000   -0.01331570  0.00000000    0.01172827  0.00000000
   11   10
 -0.45402227  0.00000000    0.19887622  0.00000000    0.14741975  0.00000000
  0.25561456  0.00000000   -0.23012753  0.00000000   -0.13438072  0.00000000
  0.17805745  0.00000000   -0.12943346  0.00000000   -0.13746891  0.00000000
   11   11
  0.48758632  0.00000000   -0.21339648  0.00000000   -0.14826407  0.00000000
 -0.21339648  0.00000000    0.22722893  0.00000000    0.10952791  0.00000000
 -0.14826407  0.00000000    0.10952791  0.00000000    0.14583933  0.00000000
   11   12
 -0.06619473  0.00000000    0.01984028  0.00000000    0.01338595  0.00000000
 -0.01984028  0.00000000    0.03056873  0.00000000    0.02341442  0.00000000
 -0.01338595  0.00000000    0.02341442  0.00000000    0.01544505  0.00000000
   12    1
 -0.00104804  0.00000000    0.00025909  0.00000000    0.01275350  0.00000000
 -0.00045496  0.00000000    0.00043365  0.00000000    0.00656946  0.00000000
  0.00261184  0.00000000    0.00236601  0.00000000    0.00053849  0.00000000
   12    2
  0.00260018  0.00000000    0.00030567  0.00000000   -0.01778799  0.00000000
  0.00158705  0.00000000   -0.00069963  0.00000000   -0.00853623  0.00000000
 -0.01000915  0.00000000   -0.00642102  0.00000000   -0.00260117  0.00000000
   12    3
  0.00016512  0.00000000   -0.00326324  0.00000000   -0.00144169  0.00000000
 -0.00030688  0.00000000   -0.00171497  0.00000000   -0.00023793  0.00000000
  0.00037550  0.00000000   -0.00174310  0.00000000   -0.00174915  0.00000000
   12    4
 -0.00060478  0.00000000   -0.00040537  0.00000000    0.00882148  0.00000000
 -0.00030420  0.00000000   -0.00052025  0.00000000    0.00475129  0.00000000
  0.00062368  0.00000000    0.00046462  0.00000000    0.00512915  0.00000000
   12    5
 -0.00287051  0.00000000    0.00138915  0.00000000   -0.00126441  0.00000000
 -0.00138915  0.00000000    0.00091142  0.00000000   -0.00086395  0.00000000
 -0.00126441  0.00000000    0.00086395  0.00000000   -0.00197263  0.00000000
   12    6
  0.00310282  0.00000000    0.00138901  0.00000000   -0.00104543  0.00000000
  0.00138901  0.00000000    0.00116852  0.00000000   -0.00036956  0.00000000
  0.00104543  0.00000000    0.00036956  0.00000000   -0.00337297  0.00000000
   12    7
  0.01925038  0.00000000    0.03167955  0.00000000    0.00867241  0.00000000
  0.03312385  0.00000000   -0.00978269  0.00000000    0.01293408  0.00000000
  0.01956453  0.00000000    0.01830764  0.00000000   -0.02439769  0.00000000
   12    8
  0.00449813  0.00000000    0.00587673  0.00000000   -0.01487396  0.00000000
  0.00402947  0.00000000    0.00151429  0.00000000   -0.00942971  0.00000000
 -0.00825895  0.00000000   -0.00440330  0.00000000   -0.00713054  0.00000000
   12    9
  0.00753674  0.00000000   -0.03191275  0.00000000    0.01870442  0.00000000
 -0.01530146  0.00000000   -0.01897960  0.00000000   -0.00338128  0.00000000
  0.01171428  0.00000000   -0.01331570  0.00000000    0.01172827  0.00000000
   12   10
 -0.45402227  0.00000000   -0.19887622  0.00000000   -0.14741975  0.00000000
 -0.25561456  0.00000000   -0.23012753  0.00000000   -0.13438072  0.00000000
 -0.17805745  0.00000000   -0.12943346  0.00000000   -0.13746891  0.00000000
   12   11
 -0.06619473  0.00000000   -0.01984028  0.00000000   -0.01338595  0.00000000
  0.01984028  0.00000000    0.03056873  0.00000000    0.02341442  0.00000000
  0.01338595  0.00000000    0.02341442  0.00000000    0.01544505  0.00000000
   12   12
  0.48758632  0.00000000    0.21339648  0.00000000    0.14826407  0.00000000
  0.21339648  0.00000000    0.22722893  0.00000000    0.10952791  0.00000000
  0.14826407  0.00000000    0.10952791  0.00000000    0.14583933  0.00000000

     Diagonalizing the dynamical matrix

     q = (    0.000000000   0.000000000   0.000000000 ) 

 **************************************************************************
     freq (    1) =      -0.614260 [THz] =     -20.489523 [cm-1]
 (  0.000000  0.000000 -0.001962  0.000000  0.287945  0.000000 ) 
 (  0.000000  0.000000 -0.001071  0.000000  0.287824  0.000000 ) 
 (  0.000000  0.000000 -0.002314  0.000000  0.288648  0.000000 ) 
 (  0.000000  0.000000 -0.001362  0.000000  0.289789  0.000000 ) 
 (  0.000052  0.000000 -0.001855  0.000000  0.288903  0.000000 ) 
 ( -0.000052  0.000000 -0.001855  0.000000  0.288903  0.000000 ) 
 ( -0.000000  0.000000  0.001962  0.000000  0.287945  0.000000 ) 
 (  0.000000  0.000000  0.001071  0.000000  0.287824  0.000000 ) 
 ( -0.000000  0.000000  0.002314  0.000000  0.288648  0.000000 ) 
 ( -0.000000  0.000000  0.001362  0.000000  0.289789  0.000000 ) 
 ( -0.000052  0.000000  0.001855  0.000000  0.288903  0.000000 ) 
 (  0.000052  0.000000  0.001855  0.000000  0.288903  0.000000 ) 
     freq (    2) =       0.121946 [THz] =       4.067685 [cm-1]
 ( -0.000000  0.000000  0.288712  0.000000 -0.000052  0.000000 ) 
 ( -0.000000  0.000000  0.288716  0.000000 -0.000053  0.000000 ) 
 ( -0.000000  0.000000  0.288709  0.000000 -0.000032  0.000000 ) 
 ( -0.000000  0.000000  0.288630  0.000000 -0.000040  0.000000 ) 
 (  0.000004  0.000000  0.288642  0.000000 -0.000041  0.000000 ) 
 ( -0.000004  0.000000  0.288642  0.000000 -0.000041  0.000000 ) 
 ( -0.000000  0.000000  0.288712  0.000000  0.000052  0.000000 ) 
 ( -0.000000  0.000000  0.288716  0.000000  0.000053  0.000000 ) 
 ( -0.000000  0.000000  0.288709  0.000000  0.000032  0.000000 ) 
 ( -0.000000  0.000000  0.288630  0.000000  0.000040  0.000000 ) 
 (  0.000004  0.000000  0.288642  0.000000  0.000041  0.000000 ) 
 ( -0.000004  0.000000  0.288642  0.000000  0.000041  0.000000 ) 
     freq (    3) =       0.207164 [THz] =       6.910251 [cm-1]
 (  0.288150  0.000000  0.000000  0.000000 -0.000000  0.000000 ) 
 (  0.288520  0.000000  0.000000  0.000000 -0.000000  0.000000 ) 
 (  0.288500  0.000000  0.000000  0.000000 -0.000000  0.000000 ) 
 (  0.289016  0.000000  0.000000  0.000000 -0.000000  0.000000 ) 
 (  0.288932  0.000000 -0.000168  0.000000  0.000128  0.000000 ) 
 (  0.288932  0.000000  0.000168  0.000000 -0.000128  0.000000 ) 
 (  0.288150  0.000000  0.000000  0.000000 -0.000000  0.000000 ) 
 (  0.288520  0.000000  0.000000  0.000000 -0.000000  0.000000 ) 
 (  0.288500  0.000000  0.000000  0.000000 -0.000000  0.000000 ) 
 (  0.289016  0.000000  0.000000  0.000000 -0.000000  0.000000 ) 
 (  0.288932  0.000000 -0.000168  0.000000 -0.000128  0.000000 ) 
 (  0.288932  0.000000  0.000168  0.000000  0.000128  0.000000 ) 
     freq (    4) =       1.824548 [THz] =      60.860378 [cm-1]
 (  0.306135  0.000000 -0.000000  0.000000 -0.000000  0.000000 ) 
 (  0.092112  0.000000 -0.000000  0.000000 -0.000000  0.000000 ) 
 (  0.314874  0.000000 -0.000000  0.000000  0.000000  0.000000 ) 
 (  0.292992  0.000000 -0.000000  0.000000 -0.000000  0.000000 ) 
 (  0.319679  0.000000 -0.000398  0.000000 -0.064873  0.000000 ) 
 (  0.319679  0.000000  0.000398  0.000000  0.064873  0.000000 ) 
 ( -0.306135  0.000000  0.000000  0.000000 -0.000000  0.000000 ) 
 ( -0.092112  0.000000  0.000000  0.000000 -0.000000  0.000000 ) 
 ( -0.314874  0.000000  0.000000  0.000000  0.000000  0.000000 ) 
 ( -0.292992  0.000000  0.000000  0.000000 -0.000000  0.000000 ) 
 ( -0.319679  0.000000  0.000398  0.000000 -0.064873  0.000000 ) 
 ( -0.319679  0.000000 -0.000398  0.000000  0.064873  0.000000 ) 
     freq (    5) =       1.877116 [THz] =      62.613851 [cm-1]
 (  0.000000  0.000000  0.294936  0.000000  0.006583  0.000000 ) 
 (  0.000000  0.000000  0.139856  0.000000  0.006868  0.000000 ) 
 (  0.000000  0.000000  0.322994  0.000000 -0.085038  0.000000 ) 
 (  0.000000  0.000000  0.288436  0.000000 -0.002559  0.000000 ) 
 ( -0.001014  0.000000  0.312868  0.000000  0.037616  0.000000 ) 
 (  0.001014  0.000000  0.312868  0.000000  0.037616  0.000000 ) 
 ( -0.000000  0.000000 -0.294936  0.000000  0.006583  0.000000 ) 
 ( -0.000000  0.000000 -0.139856  0.000000  0.006868  0.000000 ) 
 ( -0.000000  0.000000 -0.322994  0.000000 -0.085038  0.000000 ) 
 ( -0.000000  0.000000 -0.288436  0.000000 -0.002559  0.000000 ) 
 (  0.001014  0.000000 -0.312868  0.000000  0.037616  0.000000 ) 
 ( -0.001014  0.000000 -0.312868  0.000000  0.037616  0.000000 ) 
     freq (    6) =       5.924224 [THz] =     197.610826 [cm-1]
 (  0.000000  0.000000  0.041694  0.000000  0.357517  0.000000 ) 
 (  0.000000  0.000000 -0.043262  0.000000  0.358199  0.000000 ) 
 ( -0.000000  0.000000  0.114156  0.000000  0.223962  0.000000 ) 
 ( -0.000000  0.000000 -0.052961  0.000000 -0.351392  0.000000 ) 
 ( -0.037498  0.000000  0.054002  0.000000 -0.145170  0.000000 ) 
 (  0.037498  0.000000  0.054002  0.000000 -0.145170  0.000000 ) 
 ( -0.000000  0.000000  0.041694  0.000000 -0.357517  0.000000 ) 
 ( -0.000000  0.000000 -0.043262  0.000000 -0.358199  0.000000 ) 
 (  0.000000  0.000000  0.114156  0.000000 -0.223962  0.000000 ) 
 (  0.000000  0.000000 -0.052961  0.000000  0.351392  0.000000 ) 
 ( -0.037498  0.000000  0.054002  0.000000  0.145170  0.000000 ) 
 (  0.037498  0.000000  0.054002  0.000000  0.145170  0.000000 ) 
     freq (    7) =       8.051612 [THz] =     268.572872 [cm-1]
 (  0.320549  0.000000 -0.000000  0.000000 -0.000000  0.000000 ) 
 (  0.336665  0.000000 -0.000000  0.000000 -0.000000  0.000000 ) 
 (  0.081599  0.000000 -0.000000  0.000000 -0.000000  0.000000 ) 
 ( -0.312957  0.000000  0.000000  0.000000  0.000000  0.000000 ) 
 ( -0.265320  0.000000  0.110710  0.000000 -0.083672  0.000000 ) 
 ( -0.265320  0.000000 -0.110710  0.000000  0.083672  0.000000 ) 
 ( -0.320549  0.000000  0.000000  0.000000  0.000000  0.000000 ) 
 ( -0.336665  0.000000  0.000000  0.000000 -0.000000  0.000000 ) 
 ( -0.081599  0.000000  0.000000  0.000000  0.000000  0.000000 ) 
 (  0.312957  0.000000 -0.000000  0.000000  0.000000  0.000000 ) 
 (  0.265320  0.000000 -0.110710  0.000000 -0.083672  0.000000 ) 
 (  0.265320  0.000000  0.110710  0.000000  0.083672  0.000000 ) 
     freq (    8) =       8.339785 [THz] =     278.185291 [cm-1]
 (  0.000000  0.000000  0.199694  0.000000  0.247330  0.000000 ) 
 (  0.000000  0.000000  0.224913  0.000000  0.293869  0.000000 ) 
 (  0.000000  0.000000  0.254527  0.000000  0.229680  0.000000 ) 
 ( -0.000000  0.000000 -0.221032  0.000000 -0.269203  0.000000 ) 
 (  0.002130  0.000000 -0.080706  0.000000 -0.071091  0.000000 ) 
 ( -0.002130  0.000000 -0.080706  0.000000 -0.071091  0.000000 ) 
 ( -0.000000  0.000000 -0.199694  0.000000  0.247330  0.000000 ) 
 ( -0.000000  0.000000 -0.224913  0.000000  0.293869  0.000000 ) 
 (  0.000000  0.000000 -0.254527  0.000000  0.229680  0.000000 ) 
 (  0.000000  0.000000  0.221032  0.000000 -0.269203  0.000000 ) 
 ( -0.002130  0.000000  0.080706  0.000000 -0.071091  0.000000 ) 
 (  0.002130  0.000000  0.080706  0.000000 -0.071091  0.000000 ) 
     freq (    9) =       8.479599 [THz] =     282.848972 [cm-1]
 ( -0.373863  0.000000  0.000000  0.000000 -0.000000  0.000000 ) 
 ( -0.094230  0.000000  0.000000  0.000000 -0.000000  0.000000 ) 
 ( -0.095277  0.000000  0.000000  0.000000 -0.000000  0.000000 ) 
 (  0.347179  0.000000 -0.000000  0.000000 -0.000000  0.000000 ) 
 (  0.297421  0.000000 -0.122424  0.000000  0.086147  0.000000 ) 
 (  0.297421  0.000000  0.122424  0.000000 -0.086147  0.000000 ) 
 ( -0.373863  0.000000 -0.000000  0.000000  0.000000  0.000000 ) 
 ( -0.094230  0.000000 -0.000000  0.000000  0.000000  0.000000 ) 
 ( -0.095277  0.000000 -0.000000  0.000000  0.000000  0.000000 ) 
 (  0.347179  0.000000  0.000000  0.000000  0.000000  0.000000 ) 
 (  0.297421  0.000000 -0.122424  0.000000 -0.086147  0.000000 ) 
 (  0.297421  0.000000  0.122424  0.000000  0.086147  0.000000 ) 
     freq (   10) =       8.797510 [THz] =     293.453339 [cm-1]
 (  0.000000  0.000000  0.008630  0.000000 -0.283918  0.000000 ) 
 ( -0.000000  0.000000  0.007935  0.000000 -0.295395  0.000000 ) 
 ( -0.000000  0.000000  0.004103  0.000000 -0.272828  0.000000 ) 
 ( -0.000000  0.000000 -0.009736  0.000000 -0.301222  0.000000 ) 
 (  0.000432  0.000000  0.001913  0.000000 -0.288709  0.000000 ) 
 ( -0.000432  0.000000  0.001913  0.000000 -0.288709  0.000000 ) 
 (  0.000000  0.000000  0.008630  0.000000  0.283918  0.000000 ) 
 (  0.000000  0.000000  0.007935  0.000000  0.295395  0.000000 ) 
 (  0.000000  0.000000  0.004103  0.000000  0.272828  0.000000 ) 
 ( -0.000000  0.000000 -0.009736  0.000000  0.301222  0.000000 ) 
 (  0.000432  0.000000  0.001913  0.000000  0.288709  0.000000 ) 
 ( -0.000432  0.000000  0.001913  0.000000  0.288709  0.000000 ) 
     freq (   11) =      11.512386 [THz] =     384.011863 [cm-1]
 (  0.000000  0.000000 -0.331565  0.000000  0.035201  0.000000 ) 
 (  0.000000  0.000000 -0.184395  0.000000  0.032016  0.000000 ) 
 (  0.000000  0.000000 -0.344120  0.000000  0.041810  0.000000 ) 
 (  0.000000  0.000000  0.337392  0.000000 -0.046409  0.000000 ) 
 ( -0.033447  0.000000  0.218817  0.000000 -0.099111  0.000000 ) 
 (  0.033447  0.000000  0.218817  0.000000 -0.099111  0.000000 ) 
 ( -0.000000  0.000000 -0.331565  0.000000 -0.035201  0.000000 ) 
 ( -0.000000  0.000000 -0.184395  0.000000 -0.032016  0.000000 ) 
 (  0.000000  0.000000 -0.344120  0.000000 -0.041810  0.000000 ) 
 (  0.000000  0.000000  0.337392  0.000000  0.046409  0.000000 ) 
 ( -0.033447  0.000000  0.218817  0.000000  0.099111  0.000000 ) 
 (  0.033447  0.000000  0.218817  0.000000  0.099111  0.000000 ) 
     freq (   12) =      11.626042 [THz] =     387.803025 [cm-1]
 ( -0.000000  0.000000 -0.239601  0.000000  0.203299  0.000000 ) 
 ( -0.000000  0.000000 -0.314439  0.000000  0.198897  0.000000 ) 
 ( -0.000000  0.000000 -0.184409  0.000000  0.059195  0.000000 ) 
 ( -0.000000  0.000000  0.237635  0.000000 -0.199016  0.000000 ) 
 ( -0.035952  0.000000  0.197060  0.000000 -0.156509  0.000000 ) 
 (  0.035952  0.000000  0.197060  0.000000 -0.156509  0.000000 ) 
 (  0.000000  0.000000  0.239601  0.000000  0.203299  0.000000 ) 
 (  0.000000  0.000000  0.314439  0.000000  0.198897  0.000000 ) 
 ( -0.000000  0.000000  0.184409  0.000000  0.059195  0.000000 ) 
 ( -0.000000  0.000000 -0.237635  0.000000 -0.199016  0.000000 ) 
 (  0.035952  0.000000 -0.197060  0.000000 -0.156509  0.000000 ) 
 ( -0.035952  0.000000 -0.197060  0.000000 -0.156509  0.000000 ) 
     freq (   13) =      19.794106 [THz] =     660.260289 [cm-1]
 ( -0.007247  0.000000 -0.000000  0.000000 -0.000000  0.000000 ) 
 (  0.206154  0.000000  0.000000  0.000000 -0.000000  0.000000 ) 
 (  0.277056  0.000000 -0.000000  0.000000  0.000000  0.000000 ) 
 (  0.008984  0.000000  0.000000  0.000000  0.000000  0.000000 ) 
 ( -0.255470  0.000000 -0.308826  0.000000  0.172235  0.000000 ) 
 ( -0.255470  0.000000  0.308826  0.000000 -0.172235  0.000000 ) 
 ( -0.007247  0.000000 -0.000000  0.000000  0.000000  0.000000 ) 
 (  0.206154  0.000000  0.000000  0.000000  0.000000  0.000000 ) 
 (  0.277056  0.000000 -0.000000  0.000000 -0.000000  0.000000 ) 
 (  0.008984  0.000000 -0.000000  0.000000 -0.000000  0.000000 ) 
 ( -0.255470  0.000000 -0.308826  0.000000 -0.172235  0.000000 ) 
 ( -0.255470  0.000000  0.308826  0.000000  0.172235  0.000000 ) 
     freq (   14) =      19.863612 [THz] =     662.578779 [cm-1]
 (  0.000000  0.000000 -0.005249  0.000000 -0.008036  0.000000 ) 
 ( -0.000000  0.000000  0.436905  0.000000 -0.003041  0.000000 ) 
 ( -0.000000  0.000000 -0.136053  0.000000  0.413368  0.000000 ) 
 ( -0.000000  0.000000  0.004052  0.000000  0.008511  0.000000 ) 
 ( -0.001488  0.000000 -0.140962  0.000000 -0.199744  0.000000 ) 
 (  0.001488  0.000000 -0.140962  0.000000 -0.199744  0.000000 ) 
 (  0.000000  0.000000 -0.005249  0.000000  0.008036  0.000000 ) 
 ( -0.000000  0.000000  0.436905  0.000000  0.003041  0.000000 ) 
 ( -0.000000  0.000000 -0.136053  0.000000 -0.413368  0.000000 ) 
 ( -0.000000  0.000000  0.004052  0.000000 -0.008511  0.000000 ) 
 ( -0.001488  0.000000 -0.140962  0.000000  0.199744  0.000000 ) 
 (  0.001488  0.000000 -0.140962  0.000000  0.199744  0.000000 ) 
     freq (   15) =      20.013897 [THz] =     667.591740 [cm-1]
 (  0.004130  0.000000 -0.000000  0.000000 -0.000000  0.000000 ) 
 (  0.005379  0.000000  0.000000  0.000000 -0.000000  0.000000 ) 
 ( -0.389775  0.000000 -0.000000  0.000000  0.000000  0.000000 ) 
 ( -0.008727  0.000000  0.000000  0.000000  0.000000  0.000000 ) 
 (  0.219327  0.000000  0.354127  0.000000 -0.021596  0.000000 ) 
 (  0.219327  0.000000 -0.354127  0.000000  0.021596  0.000000 ) 
 ( -0.004130  0.000000 -0.000000  0.000000  0.000000  0.000000 ) 
 ( -0.005379  0.000000  0.000000  0.000000  0.000000  0.000000 ) 
 (  0.389775  0.000000 -0.000000  0.000000 -0.000000  0.000000 ) 
 (  0.008727  0.000000 -0.000000  0.000000 -0.000000  0.000000 ) 
 ( -0.219327  0.000000 -0.354127  0.000000 -0.021596  0.000000 ) 
 ( -0.219327  0.000000  0.354127  0.000000  0.021596  0.000000 ) 
     freq (   16) =      20.476336 [THz] =     683.017052 [cm-1]
 (  0.000566  0.000000 -0.000000  0.000000 -0.000000  0.000000 ) 
 ( -0.375790  0.000000  0.000000  0.000000 -0.000000  0.000000 ) 
 (  0.329108  0.000000 -0.000000  0.000000  0.000000  0.000000 ) 
 ( -0.000788  0.000000  0.000000  0.000000  0.000000  0.000000 ) 
 (  0.025139  0.000000 -0.171084  0.000000 -0.308760  0.000000 ) 
 (  0.025139  0.000000  0.171084  0.000000  0.308760  0.000000 ) 
 (  0.000566  0.000000 -0.000000  0.000000  0.000000  0.000000 ) 
 ( -0.375790  0.000000  0.000000  0.000000  0.000000  0.000000 ) 
 (  0.329108  0.000000 -0.000000  0.000000 -0.000000  0.000000 ) 
 ( -0.000788  0.000000 -0.000000  0.000000 -0.000000  0.000000 ) 
 (  0.025139  0.000000 -0.171084  0.000000  0.308760  0.000000 ) 
 (  0.025139  0.000000  0.171084  0.000000 -0.308760  0.000000 ) 
     freq (   17) =      22.845039 [THz] =     762.028462 [cm-1]
 ( -0.000000  0.000000  0.006467  0.000000  0.013313  0.000000 ) 
 ( -0.000000  0.000000 -0.442128  0.000000  0.004637  0.000000 ) 
 (  0.000000  0.000000  0.151214  0.000000 -0.449915  0.000000 ) 
 ( -0.000000  0.000000 -0.030040  0.000000 -0.006016  0.000000 ) 
 (  0.010010  0.000000  0.108562  0.000000  0.164747  0.000000 ) 
 ( -0.010010  0.000000  0.108562  0.000000  0.164747  0.000000 ) 
 (  0.000000  0.000000 -0.006467  0.000000  0.013313  0.000000 ) 
 ( -0.000000  0.000000  0.442128  0.000000  0.004637  0.000000 ) 
 (  0.000000  0.000000 -0.151214  0.000000 -0.449915  0.000000 ) 
 (  0.000000  0.000000  0.030040  0.000000 -0.006016  0.000000 ) 
 ( -0.010010  0.000000 -0.108562  0.000000  0.164747  0.000000 ) 
 (  0.010010  0.000000 -0.108562  0.000000  0.164747  0.000000 ) 
     freq (   18) =      25.006256 [THz] =     834.118899 [cm-1]
 (  0.030077  0.000000  0.000000  0.000000  0.000000  0.000000 ) 
 ( -0.071820  0.000000 -0.000000  0.000000 -0.000000  0.000000 ) 
 ( -0.282270  0.000000  0.000000  0.000000 -0.000000  0.000000 ) 
 (  0.023857  0.000000 -0.000000  0.000000  0.000000  0.000000 ) 
 ( -0.167018  0.000000 -0.023716  0.000000  0.422361  0.000000 ) 
 ( -0.167018  0.000000  0.023716  0.000000 -0.422361  0.000000 ) 
 ( -0.030077  0.000000 -0.000000  0.000000 -0.000000  0.000000 ) 
 (  0.071820  0.000000  0.000000  0.000000  0.000000  0.000000 ) 
 (  0.282270  0.000000 -0.000000  0.000000 -0.000000  0.000000 ) 
 ( -0.023857  0.000000  0.000000  0.000000 -0.000000  0.000000 ) 
 (  0.167018  0.000000  0.023716  0.000000  0.422361  0.000000 ) 
 (  0.167018  0.000000 -0.023716  0.000000 -0.422361  0.000000 ) 
     freq (   19) =      28.752969 [THz] =     959.095799 [cm-1]
 (  0.027583  0.000000 -0.000000  0.000000 -0.000000  0.000000 ) 
 ( -0.700479  0.000000  0.000000  0.000000 -0.000000  0.000000 ) 
 (  0.005033  0.000000 -0.000000  0.000000  0.000000  0.000000 ) 
 ( -0.017776  0.000000 -0.000000  0.000000 -0.000000  0.000000 ) 
 (  0.005173  0.000000 -0.005029  0.000000 -0.063731  0.000000 ) 
 (  0.005173  0.000000  0.005029  0.000000  0.063731  0.000000 ) 
 ( -0.027583  0.000000  0.000000  0.000000 -0.000000  0.000000 ) 
 (  0.700479  0.000000 -0.000000  0.000000 -0.000000  0.000000 ) 
 ( -0.005033  0.000000  0.000000  0.000000  0.000000  0.000000 ) 
 (  0.017776  0.000000  0.000000  0.000000 -0.000000  0.000000 ) 
 ( -0.005173  0.000000  0.005029  0.000000 -0.063731  0.000000 ) 
 ( -0.005173  0.000000 -0.005029  0.000000  0.063731  0.000000 ) 
     freq (   20) =      29.478312 [THz] =     983.290632 [cm-1]
 (  0.000000  0.000000  0.024280  0.000000  0.021249  0.000000 ) 
 ( -0.000000  0.000000 -0.239107  0.000000  0.024256  0.000000 ) 
 ( -0.000000  0.000000  0.080795  0.000000 -0.143353  0.000000 ) 
 (  0.000000  0.000000  0.015097  0.000000  0.033496  0.000000 ) 
 (  0.005035  0.000000 -0.256342  0.000000 -0.375032  0.000000 ) 
 ( -0.005035  0.000000 -0.256342  0.000000 -0.375032  0.000000 ) 
 (  0.000000  0.000000 -0.024280  0.000000  0.021249  0.000000 ) 
 (  0.000000  0.000000  0.239107  0.000000  0.024256  0.000000 ) 
 (  0.000000  0.000000 -0.080795  0.000000 -0.143353  0.000000 ) 
 (  0.000000  0.000000 -0.015097  0.000000  0.033496  0.000000 ) 
 ( -0.005035  0.000000  0.256342  0.000000 -0.375032  0.000000 ) 
 (  0.005035  0.000000  0.256342  0.000000 -0.375032  0.000000 ) 
     freq (   21) =      31.171406 [THz] =    1039.766193 [cm-1]
 (  0.040180  0.000000 -0.000000  0.000000 -0.000000  0.000000 ) 
 ( -0.447581  0.000000  0.000000  0.000000 -0.000000  0.000000 ) 
 ( -0.422309  0.000000 -0.000000  0.000000  0.000000  0.000000 ) 
 (  0.029792  0.000000 -0.000000  0.000000 -0.000000  0.000000 ) 
 ( -0.120295  0.000000 -0.167304  0.000000  0.130193  0.000000 ) 
 ( -0.120295  0.000000  0.167304  0.000000 -0.130193  0.000000 ) 
 (  0.040180  0.000000  0.000000  0.000000  0.000000  0.000000 ) 
 ( -0.447581  0.000000 -0.000000  0.000000  0.000000  0.000000 ) 
 ( -0.422309  0.000000 -0.000000  0.000000 -0.000000  0.000000 ) 
 (  0.029792  0.000000 -0.000000  0.000000 -0.000000  0.000000 ) 
 ( -0.120295  0.000000 -0.167304  0.000000 -0.130193  0.000000 ) 
 ( -0.120295  0.000000  0.167304  0.000000  0.130193  0.000000 ) 
     freq (   22) =      32.440719 [THz] =    1082.105905 [cm-1]
 ( -0.000000  0.000000 -0.016741  0.000000 -0.022554  0.000000 ) 
 (  0.000000  0.000000  0.257880  0.000000 -0.017510  0.000000 ) 
 (  0.000000  0.000000 -0.100301  0.000000  0.211066  0.000000 ) 
 ( -0.000000  0.000000 -0.025213  0.000000 -0.031270  0.000000 ) 
 (  0.004500  0.000000  0.254123  0.000000  0.351413  0.000000 ) 
 ( -0.004500  0.000000  0.254123  0.000000  0.351413  0.000000 ) 
 ( -0.000000  0.000000 -0.016741  0.000000  0.022554  0.000000 ) 
 (  0.000000  0.000000  0.257880  0.000000  0.017510  0.000000 ) 
 (  0.000000  0.000000 -0.100301  0.000000 -0.211066  0.000000 ) 
 ( -0.000000  0.000000 -0.025213  0.000000  0.031270  0.000000 ) 
 (  0.004500  0.000000  0.254123  0.000000 -0.351413  0.000000 ) 
 ( -0.004500  0.000000  0.254123  0.000000 -0.351413  0.000000 ) 
     freq (   23) =      34.006409 [THz] =    1134.331691 [cm-1]
 (  0.018708  0.000000 -0.000000  0.000000 -0.000000  0.000000 ) 
 (  0.044791  0.000000  0.000000  0.000000 -0.000000  0.000000 ) 
 ( -0.509721  0.000000 -0.000000  0.000000  0.000000  0.000000 ) 
 (  0.014744  0.000000 -0.000000  0.000000 -0.000000  0.000000 ) 
 ( -0.049373  0.000000 -0.262416  0.000000 -0.217958  0.000000 ) 
 ( -0.049373  0.000000  0.262416  0.000000  0.217958  0.000000 ) 
 ( -0.018708  0.000000  0.000000  0.000000 -0.000000  0.000000 ) 
 ( -0.044791  0.000000 -0.000000  0.000000 -0.000000  0.000000 ) 
 (  0.509721  0.000000  0.000000  0.000000  0.000000  0.000000 ) 
 ( -0.014744  0.000000  0.000000  0.000000 -0.000000  0.000000 ) 
 (  0.049373  0.000000  0.262416  0.000000 -0.217958  0.000000 ) 
 (  0.049373  0.000000 -0.262416  0.000000  0.217958  0.000000 ) 
     freq (   24) =      35.944576 [THz] =    1198.981999 [cm-1]
 (  0.001245  0.000000 -0.000000  0.000000 -0.000000  0.000000 ) 
 (  0.339074  0.000000  0.000000  0.000000 -0.000000  0.000000 ) 
 ( -0.366312  0.000000 -0.000000  0.000000  0.000000  0.000000 ) 
 (  0.000993  0.000000 -0.000000  0.000000 -0.000000  0.000000 ) 
 ( -0.004144  0.000000 -0.207683  0.000000 -0.286830  0.000000 ) 
 ( -0.004144  0.000000  0.207683  0.000000  0.286830  0.000000 ) 
 (  0.001245  0.000000 -0.000000  0.000000  0.000000  0.000000 ) 
 (  0.339074  0.000000  0.000000  0.000000  0.000000  0.000000 ) 
 ( -0.366312  0.000000 -0.000000  0.000000 -0.000000  0.000000 ) 
 (  0.000993  0.000000 -0.000000  0.000000  0.000000  0.000000 ) 
 ( -0.004144  0.000000 -0.207683  0.000000  0.286830  0.000000 ) 
 ( -0.004144  0.000000  0.207683  0.000000 -0.286830  0.000000 ) 
     freq (   25) =      47.986716 [THz] =    1600.664538 [cm-1]
 ( -0.000000  0.000000  0.032186  0.000000 -0.023659  0.000000 ) 
 (  0.000000  0.000000 -0.433639  0.000000 -0.017552  0.000000 ) 
 (  0.000000  0.000000 -0.118475  0.000000  0.398902  0.000000 ) 
 ( -0.000000  0.000000  0.014019  0.000000 -0.018448  0.000000 ) 
 ( -0.162216  0.000000 -0.145860  0.000000  0.143490  0.000000 ) 
 (  0.162216  0.000000 -0.145860  0.000000  0.143490  0.000000 ) 
 (  0.000000  0.000000 -0.032186  0.000000 -0.023659  0.000000 ) 
 (  0.000000  0.000000  0.433639  0.000000 -0.017552  0.000000 ) 
 ( -0.000000  0.000000  0.118475  0.000000  0.398902  0.000000 ) 
 (  0.000000  0.000000 -0.014019  0.000000 -0.018448  0.000000 ) 
 (  0.162216  0.000000  0.145860  0.000000  0.143490  0.000000 ) 
 ( -0.162216  0.000000  0.145860  0.000000  0.143490  0.000000 ) 
     freq (   26) =      48.024405 [THz] =    1601.921727 [cm-1]
 (  0.000000  0.000000  0.028648  0.000000 -0.022735  0.000000 ) 
 ( -0.000000  0.000000 -0.354703  0.000000 -0.007596  0.000000 ) 
 (  0.000000  0.000000 -0.104624  0.000000  0.355033  0.000000 ) 
 ( -0.000000  0.000000  0.026969  0.000000 -0.019256  0.000000 ) 
 ( -0.212732  0.000000 -0.211664  0.000000  0.165204  0.000000 ) 
 (  0.212732  0.000000 -0.211664  0.000000  0.165204  0.000000 ) 
 ( -0.000000  0.000000  0.028648  0.000000  0.022735  0.000000 ) 
 ( -0.000000  0.000000 -0.354703  0.000000  0.007596  0.000000 ) 
 (  0.000000  0.000000 -0.104624  0.000000 -0.355033  0.000000 ) 
 ( -0.000000  0.000000  0.026969  0.000000  0.019256  0.000000 ) 
 ( -0.212732  0.000000 -0.211664  0.000000 -0.165204  0.000000 ) 
 (  0.212732  0.000000 -0.211664  0.000000 -0.165204  0.000000 ) 
     freq (   27) =      49.710608 [THz] =    1658.167412 [cm-1]
 (  0.000000  0.000000  0.013399  0.000000 -0.011080  0.000000 ) 
 (  0.000000  0.000000 -0.242439  0.000000 -0.001003  0.000000 ) 
 ( -0.000000  0.000000 -0.088878  0.000000  0.260755  0.000000 ) 
 (  0.000000  0.000000 -0.032010  0.000000  0.016930  0.000000 ) 
 (  0.253139  0.000000  0.294426  0.000000 -0.176330  0.000000 ) 
 ( -0.253139  0.000000  0.294426  0.000000 -0.176330  0.000000 ) 
 (  0.000000  0.000000 -0.013399  0.000000 -0.011080  0.000000 ) 
 (  0.000000  0.000000  0.242439  0.000000 -0.001003  0.000000 ) 
 ( -0.000000  0.000000  0.088878  0.000000  0.260755  0.000000 ) 
 (  0.000000  0.000000  0.032010  0.000000  0.016930  0.000000 ) 
 ( -0.253139  0.000000 -0.294426  0.000000 -0.176330  0.000000 ) 
 (  0.253139  0.000000 -0.294426  0.000000 -0.176330  0.000000 ) 
     freq (   28) =      50.923523 [THz] =    1698.625902 [cm-1]
 ( -0.000000  0.000000 -0.019459  0.000000  0.013454  0.000000 ) 
 (  0.000000  0.000000  0.340859  0.000000  0.008310  0.000000 ) 
 (  0.000000  0.000000  0.106566  0.000000 -0.327959  0.000000 ) 
 ( -0.000000  0.000000  0.021667  0.000000 -0.015472  0.000000 ) 
 ( -0.213842  0.000000 -0.241226  0.000000  0.166923  0.000000 ) 
 (  0.213842  0.000000 -0.241226  0.000000  0.166923  0.000000 ) 
 (  0.000000  0.000000 -0.019459  0.000000 -0.013454  0.000000 ) 
 ( -0.000000  0.000000  0.340859  0.000000 -0.008310  0.000000 ) 
 ( -0.000000  0.000000  0.106566  0.000000  0.327959  0.000000 ) 
 (  0.000000  0.000000  0.021667  0.000000  0.015472  0.000000 ) 
 ( -0.213842  0.000000 -0.241226  0.000000 -0.166923  0.000000 ) 
 (  0.213842  0.000000 -0.241226  0.000000 -0.166923  0.000000 ) 
     freq (   29) =      87.364360 [THz] =    2914.161372 [cm-1]
 (  0.000000  0.000000 -0.020894  0.000000  0.014786  0.000000 ) 
 ( -0.000000  0.000000 -0.001054  0.000000 -0.351005  0.000000 ) 
 ( -0.000000  0.000000  0.336773  0.000000  0.115155  0.000000 ) 
 ( -0.000000  0.000000 -0.020865  0.000000  0.014522  0.000000 ) 
 ( -0.289234  0.000000  0.166149  0.000000 -0.114655  0.000000 ) 
 (  0.289234  0.000000  0.166149  0.000000 -0.114655  0.000000 ) 
 ( -0.000000  0.000000  0.020894  0.000000  0.014786  0.000000 ) 
 ( -0.000000  0.000000  0.001054  0.000000 -0.351005  0.000000 ) 
 (  0.000000  0.000000 -0.336773  0.000000  0.115155  0.000000 ) 
 (  0.000000  0.000000  0.020865  0.000000  0.014522  0.000000 ) 
 (  0.289234  0.000000 -0.166149  0.000000 -0.114655  0.000000 ) 
 ( -0.289234  0.000000 -0.166149  0.000000 -0.114655  0.000000 ) 
     freq (   30) =      88.257758 [THz] =    2943.961933 [cm-1]
 ( -0.000000  0.000000  0.033364  0.000000  0.006633  0.000000 ) 
 ( -0.000000  0.000000  0.007841  0.000000  0.097679  0.000000 ) 
 (  0.000000  0.000000 -0.512347  0.000000 -0.170686  0.000000 ) 
 (  0.000000  0.000000  0.017267  0.000000 -0.014497  0.000000 ) 
 (  0.258021  0.000000 -0.149506  0.000000  0.098094  0.000000 ) 
 ( -0.258021  0.000000 -0.149506  0.000000  0.098094  0.000000 ) 
 (  0.000000  0.000000  0.033364  0.000000 -0.006633  0.000000 ) 
 (  0.000000  0.000000  0.007841  0.000000 -0.097679  0.000000 ) 
 ( -0.000000  0.000000 -0.512347  0.000000  0.170686  0.000000 ) 
 (  0.000000  0.000000  0.017267  0.000000  0.014497  0.000000 ) 
 (  0.258021  0.000000 -0.149506  0.000000 -0.098094  0.000000 ) 
 ( -0.258021  0.000000 -0.149506  0.000000 -0.098094  0.000000 ) 
     freq (   31) =      90.484705 [THz] =    3018.244885 [cm-1]
 ( -0.003948  0.000000 -0.000000  0.000000 -0.000000  0.000000 ) 
 ( -0.003248  0.000000 -0.000000  0.000000  0.000000  0.000000 ) 
 ( -0.006936  0.000000  0.000000  0.000000  0.000000  0.000000 ) 
 (  0.054959  0.000000  0.000000  0.000000  0.000000  0.000000 ) 
 ( -0.399881  0.000000  0.244655  0.000000 -0.169387  0.000000 ) 
 ( -0.399881  0.000000 -0.244655  0.000000  0.169387  0.000000 ) 
 (  0.003948  0.000000  0.000000  0.000000 -0.000000  0.000000 ) 
 (  0.003248  0.000000  0.000000  0.000000  0.000000  0.000000 ) 
 (  0.006936  0.000000 -0.000000  0.000000  0.000000  0.000000 ) 
 ( -0.054959  0.000000 -0.000000  0.000000  0.000000  0.000000 ) 
 (  0.399881  0.000000 -0.244655  0.000000 -0.169387  0.000000 ) 
 (  0.399881  0.000000  0.244655  0.000000  0.169387  0.000000 ) 
     freq (   32) =      90.508657 [THz] =    3019.043844 [cm-1]
 (  0.003767  0.000000 -0.000000  0.000000 -0.000000  0.000000 ) 
 (  0.006547  0.000000 -0.000000  0.000000  0.000000  0.000000 ) 
 (  0.007269  0.000000  0.000000  0.000000  0.000000  0.000000 ) 
 ( -0.055049  0.000000  0.000000  0.000000  0.000000  0.000000 ) 
 (  0.400025  0.000000 -0.244548  0.000000  0.169134  0.000000 ) 
 (  0.400025  0.000000  0.244548  0.000000 -0.169134  0.000000 ) 
 (  0.003767  0.000000  0.000000  0.000000 -0.000000  0.000000 ) 
 (  0.006547  0.000000  0.000000  0.000000  0.000000  0.000000 ) 
 (  0.007269  0.000000 -0.000000  0.000000  0.000000  0.000000 ) 
 ( -0.055049  0.000000 -0.000000  0.000000  0.000000  0.000000 ) 
 (  0.400025  0.000000 -0.244548  0.000000 -0.169134  0.000000 ) 
 (  0.400025  0.000000  0.244548  0.000000  0.169134  0.000000 ) 
     freq (   33) =      90.554693 [THz] =    3020.579432 [cm-1]
 ( -0.000000  0.000000 -0.032049  0.000000 -0.044754  0.000000 ) 
 ( -0.000000  0.000000 -0.010764  0.000000  0.500218  0.000000 ) 
 (  0.000000  0.000000  0.473441  0.000000  0.149585  0.000000 ) 
 (  0.000000  0.000000  0.002255  0.000000  0.003024  0.000000 ) 
 (  0.001300  0.000000  0.003032  0.000000  0.006238  0.000000 ) 
 ( -0.001300  0.000000  0.003032  0.000000  0.006238  0.000000 ) 
 ( -0.000000  0.000000  0.032049  0.000000 -0.044754  0.000000 ) 
 ( -0.000000  0.000000  0.010764  0.000000  0.500218  0.000000 ) 
 ( -0.000000  0.000000 -0.473441  0.000000  0.149585  0.000000 ) 
 (  0.000000  0.000000 -0.002255  0.000000  0.003024  0.000000 ) 
 ( -0.001300  0.000000 -0.003032  0.000000  0.006238  0.000000 ) 
 (  0.001300  0.000000 -0.003032  0.000000  0.006238  0.000000 ) 
     freq (   34) =      94.958978 [THz] =    3167.490553 [cm-1]
 ( -0.000000  0.000000 -0.003622  0.000000  0.040164  0.000000 ) 
 (  0.000000  0.000000 -0.006978  0.000000 -0.662605  0.000000 ) 
 ( -0.000000  0.000000  0.070340  0.000000  0.041780  0.000000 ) 
 ( -0.000000  0.000000  0.009235  0.000000 -0.006539  0.000000 ) 
 (  0.131157  0.000000 -0.076226  0.000000  0.056714  0.000000 ) 
 ( -0.131157  0.000000 -0.076226  0.000000  0.056714  0.000000 ) 
 (  0.000000  0.000000 -0.003622  0.000000 -0.040164  0.000000 ) 
 (  0.000000  0.000000 -0.006978  0.000000  0.662605  0.000000 ) 
 ( -0.000000  0.000000  0.070340  0.000000 -0.041780  0.000000 ) 
 ( -0.000000  0.000000  0.009235  0.000000  0.006539  0.000000 ) 
 (  0.131157  0.000000 -0.076226  0.000000 -0.056714  0.000000 ) 
 ( -0.131157  0.000000 -0.076226  0.000000 -0.056714  0.000000 ) 
     freq (   35) =      97.425645 [THz] =    3249.769715 [cm-1]
 (  0.000000  0.000000  0.019594  0.000000 -0.014154  0.000000 ) 
 ( -0.000000  0.000000  0.014700  0.000000  0.352428  0.000000 ) 
 ( -0.000000  0.000000 -0.330607  0.000000 -0.123437  0.000000 ) 
 (  0.000000  0.000000 -0.019903  0.000000  0.013902  0.000000 ) 
 ( -0.293537  0.000000  0.161593  0.000000 -0.112505  0.000000 ) 
 (  0.293537  0.000000  0.161593  0.000000 -0.112505  0.000000 ) 
 (  0.000000  0.000000 -0.019594  0.000000 -0.014154  0.000000 ) 
 ( -0.000000  0.000000 -0.014700  0.000000  0.352428  0.000000 ) 
 ( -0.000000  0.000000  0.330607  0.000000 -0.123437  0.000000 ) 
 ( -0.000000  0.000000  0.019903  0.000000  0.013902  0.000000 ) 
 (  0.293537  0.000000 -0.161593  0.000000 -0.112505  0.000000 ) 
 ( -0.293537  0.000000 -0.161593  0.000000 -0.112505  0.000000 ) 
     freq (   36) =      97.513320 [THz] =    3252.694225 [cm-1]
 ( -0.000000  0.000000  0.025803  0.000000  0.023309  0.000000 ) 
 (  0.000000  0.000000  0.009229  0.000000 -0.215156  0.000000 ) 
 ( -0.000000  0.000000 -0.417799  0.000000 -0.143843  0.000000 ) 
 (  0.000000  0.000000 -0.020440  0.000000  0.014898  0.000000 ) 
 ( -0.297024  0.000000  0.161735  0.000000 -0.117821  0.000000 ) 
 (  0.297024  0.000000  0.161735  0.000000 -0.117821  0.000000 ) 
 (  0.000000  0.000000  0.025803  0.000000 -0.023309  0.000000 ) 
 (  0.000000  0.000000  0.009229  0.000000  0.215156  0.000000 ) 
 ( -0.000000  0.000000 -0.417799  0.000000  0.143843  0.000000 ) 
 ( -0.000000  0.000000 -0.020440  0.000000 -0.014898  0.000000 ) 
 ( -0.297024  0.000000  0.161735  0.000000  0.117821  0.000000 ) 
 (  0.297024  0.000000  0.161735  0.000000  0.117821  0.000000 ) 
 **************************************************************************
